# Figure 4: ESM Fiber Dispersion Curves
# Melchert & Demircan, Computer Physics Communications 273 (2022) 108257
# Pade [8/8] approximant for refractive index of ESM PCF
# Columns: w (angular frequency, rad/fs), beta1 (group delay, fs/um), beta2 (GVD, fs^2/um)
w_rad_fs,beta1_fs_um,beta2_fs2_um
5.00000000e-01,4.77185467e+00,-1.87077169e-01
5.07014028e-01,4.77052375e+00,-1.92406183e-01
5.14028056e-01,4.76915586e+00,-1.97619811e-01
5.21042084e-01,4.76775178e+00,-2.02726272e-01
5.28056112e-01,4.76631224e+00,-2.07733083e-01
5.35070140e-01,4.76483791e+00,-2.12647133e-01
5.42084168e-01,4.76332942e+00,-2.17474744e-01
5.49098196e-01,4.76178735e+00,-2.22221730e-01
5.56112224e-01,4.76021226e+00,-2.26893436e-01
5.63126253e-01,4.75860464e+00,-2.31494782e-01
5.70140281e-01,4.75696499e+00,-2.36030316e-01
5.77154309e-01,4.75529374e+00,-2.40504228e-01
5.84168337e-01,4.75359132e+00,-2.44920398e-01
5.91182365e-01,4.75185811e+00,-2.49282413e-01
5.98196393e-01,4.75009449e+00,-2.53593599e-01
6.05210421e-01,4.74830080e+00,-2.57857036e-01
6.12224449e-01,4.74647736e+00,-2.62075590e-01
6.19238477e-01,4.74462449e+00,-2.66251917e-01
6.26252505e-01,4.74274246e+00,-2.70388493e-01
6.33266533e-01,4.74083155e+00,-2.74487619e-01
6.40280561e-01,4.73889202e+00,-2.78551442e-01
6.47294589e-01,4.73692410e+00,-2.82581964e-01
6.54308617e-01,4.73492802e+00,-2.86581048e-01
6.61322645e-01,4.73290399e+00,-2.90550444e-01
6.68336673e-01,4.73085222e+00,-2.94491781e-01
6.75350701e-01,4.72877291e+00,-2.98406587e-01
6.82364729e-01,4.72666622e+00,-3.02296289e-01
6.89378758e-01,4.72453233e+00,-3.06162231e-01
6.96392786e-01,4.72237141e+00,-3.10005662e-01
7.03406814e-01,4.72018361e+00,-3.13827770e-01
7.10420842e-01,4.71796906e+00,-3.17629658e-01
7.17434870e-01,4.71572792e+00,-3.21412363e-01
7.24448898e-01,4.71346032e+00,-3.25176869e-01
7.31462926e-01,4.71116637e+00,-3.28924092e-01
7.38476954e-01,4.70884619e+00,-3.32654906e-01
7.45490982e-01,4.70649990e+00,-3.36370126e-01
7.52505010e-01,4.70412761e+00,-3.40070519e-01
7.59519038e-01,4.70172941e+00,-3.43756814e-01
7.66533066e-01,4.69930540e+00,-3.47429701e-01
7.73547094e-01,4.69685567e+00,-3.51089823e-01
7.80561122e-01,4.69438032e+00,-3.54737795e-01
7.87575150e-01,4.69187942e+00,-3.58374197e-01
7.94589178e-01,4.68935305e+00,-3.61999576e-01
8.01603206e-01,4.68680129e+00,-3.65614453e-01
8.08617234e-01,4.68422422e+00,-3.69219320e-01
8.15631263e-01,4.68162189e+00,-3.72814638e-01
8.22645291e-01,4.67899437e+00,-3.76400855e-01
8.29659319e-01,4.67634173e+00,-3.79978390e-01
8.36673347e-01,4.67366403e+00,-3.83547636e-01
8.43687375e-01,4.67096133e+00,-3.87108975e-01
8.50701403e-01,4.66823367e+00,-3.90662768e-01
8.57715431e-01,4.66548110e+00,-3.94209348e-01
8.64729459e-01,4.66270369e+00,-3.97749051e-01
8.71743487e-01,4.65990147e+00,-4.01282176e-01
8.78757515e-01,4.65707450e+00,-4.04809024e-01
8.85771543e-01,4.65422280e+00,-4.08329872e-01
8.92785571e-01,4.65134644e+00,-4.11844987e-01
8.99799599e-01,4.64844543e+00,-4.15354624e-01
9.06813627e-01,4.64551983e+00,-4.18859025e-01
9.13827655e-01,4.64256967e+00,-4.22358423e-01
9.20841683e-01,4.63959497e+00,-4.25853036e-01
9.27855711e-01,4.63659579e+00,-4.29343078e-01
9.34869739e-01,4.63357214e+00,-4.32828751e-01
9.41883768e-01,4.63052405e+00,-4.36310246e-01
9.48897796e-01,4.62745156e+00,-4.39787747e-01
9.55911824e-01,4.62435469e+00,-4.43261428e-01
9.62925852e-01,4.62123347e+00,-4.46731462e-01
9.69939880e-01,4.61808793e+00,-4.50198008e-01
9.76953908e-01,4.61491808e+00,-4.53661221e-01
9.83967936e-01,4.61172395e+00,-4.57121248e-01
9.90981964e-01,4.60850556e+00,-4.60578234e-01
9.97995992e-01,4.60526294e+00,-4.64032313e-01
1.00501002e+00,4.60199610e+00,-4.67483611e-01
1.01202405e+00,4.59870506e+00,-4.70932261e-01
1.01903808e+00,4.59538984e+00,-4.74378379e-01
1.02605210e+00,4.59205046e+00,-4.77822079e-01
1.03306613e+00,4.58868693e+00,-4.81263474e-01
1.04008016e+00,4.58529927e+00,-4.84702671e-01
1.04709419e+00,4.58188750e+00,-4.88139767e-01
1.05410822e+00,4.57845162e+00,-4.91574868e-01
1.06112224e+00,4.57499166e+00,-4.95008063e-01
1.06813627e+00,4.57150763e+00,-4.98439448e-01
1.07515030e+00,4.56799953e+00,-5.01869104e-01
1.08216433e+00,4.56446738e+00,-5.05297121e-01
1.08917836e+00,4.56091120e+00,-5.08723575e-01
1.09619238e+00,4.55733098e+00,-5.12148553e-01
1.10320641e+00,4.55372675e+00,-5.15572119e-01
1.11022044e+00,4.55009851e+00,-5.18994356e-01
1.11723447e+00,4.54644627e+00,-5.22415325e-01
1.12424850e+00,4.54277004e+00,-5.25835100e-01
1.13126253e+00,4.53906983e+00,-5.29253745e-01
1.13827655e+00,4.53534565e+00,-5.32671325e-01
1.14529058e+00,4.53159749e+00,-5.36087895e-01
1.15230461e+00,4.52782538e+00,-5.39503518e-01
1.15931864e+00,4.52402931e+00,-5.42918252e-01
1.16633267e+00,4.52020929e+00,-5.46332150e-01
1.17334669e+00,4.51636533e+00,-5.49745262e-01
1.18036072e+00,4.51249743e+00,-5.53157646e-01
1.18737475e+00,4.50860561e+00,-5.56569348e-01
1.19438878e+00,4.50468985e+00,-5.59980413e-01
1.20140281e+00,4.50075017e+00,-5.63390899e-01
1.20841683e+00,4.49678657e+00,-5.66800837e-01
1.21543086e+00,4.49279906e+00,-5.70210277e-01
1.22244489e+00,4.48878763e+00,-5.73619265e-01
1.22945892e+00,4.48475230e+00,-5.77027836e-01
1.23647295e+00,4.48069305e+00,-5.80436033e-01
1.24348697e+00,4.47660991e+00,-5.83843896e-01
1.25050100e+00,4.47250286e+00,-5.87251455e-01
1.25751503e+00,4.46837191e+00,-5.90658756e-01
1.26452906e+00,4.46421707e+00,-5.94065829e-01
1.27154309e+00,4.46003832e+00,-5.97472713e-01
1.27855711e+00,4.45583569e+00,-6.00879433e-01
1.28557114e+00,4.45160915e+00,-6.04286032e-01
1.29258517e+00,4.44735873e+00,-6.07692534e-01
1.29959920e+00,4.44308441e+00,-6.11098971e-01
1.30661323e+00,4.43878620e+00,-6.14505375e-01
1.31362725e+00,4.43446409e+00,-6.17911772e-01
1.32064128e+00,4.43011810e+00,-6.21318192e-01
1.32765531e+00,4.42574821e+00,-6.24724665e-01
1.33466934e+00,4.42135442e+00,-6.28131211e-01
1.34168337e+00,4.41693675e+00,-6.31537861e-01
1.34869739e+00,4.41249517e+00,-6.34944641e-01
1.35571142e+00,4.40802971e+00,-6.38351572e-01
1.36272545e+00,4.40354034e+00,-6.41758684e-01
1.36973948e+00,4.39902708e+00,-6.45165997e-01
1.37675351e+00,4.39448992e+00,-6.48573530e-01
1.38376754e+00,4.38992885e+00,-6.51981315e-01
1.39078156e+00,4.38534389e+00,-6.55389367e-01
1.39779559e+00,4.38073501e+00,-6.58797707e-01
1.40480962e+00,4.37610223e+00,-6.62206361e-01
1.41182365e+00,4.37144554e+00,-6.65615344e-01
1.41883768e+00,4.36676494e+00,-6.69024677e-01
1.42585170e+00,4.36206043e+00,-6.72434385e-01
1.43286573e+00,4.35733200e+00,-6.75844480e-01
1.43987976e+00,4.35257964e+00,-6.79254985e-01
1.44689379e+00,4.34780337e+00,-6.82665915e-01
1.45390782e+00,4.34300317e+00,-6.86077291e-01
1.46092184e+00,4.33817904e+00,-6.89489129e-01
1.46793587e+00,4.33333097e+00,-6.92901448e-01
1.47494990e+00,4.32845897e+00,-6.96314262e-01
1.48196393e+00,4.32356304e+00,-6.99727593e-01
1.48897796e+00,4.31864315e+00,-7.03141443e-01
1.49599198e+00,4.31369933e+00,-7.06555848e-01
1.50300601e+00,4.30873155e+00,-7.09970808e-01
1.51002004e+00,4.30373982e+00,-7.13386342e-01
1.51703407e+00,4.29872412e+00,-7.16802477e-01
1.52404810e+00,4.29368447e+00,-7.20219202e-01
1.53106212e+00,4.28862085e+00,-7.23636559e-01
1.53807615e+00,4.28353325e+00,-7.27054545e-01
1.54509018e+00,4.27842168e+00,-7.30473175e-01
1.55210421e+00,4.27328613e+00,-7.33892477e-01
1.55911824e+00,4.26812660e+00,-7.37312445e-01
1.56613226e+00,4.26294307e+00,-7.40733103e-01
1.57314629e+00,4.25773555e+00,-7.44154462e-01
1.58016032e+00,4.25250403e+00,-7.47576534e-01
1.58717435e+00,4.24724850e+00,-7.50999336e-01
1.59418838e+00,4.24196897e+00,-7.54422872e-01
1.60120240e+00,4.23666541e+00,-7.57847160e-01
1.60821643e+00,4.23133784e+00,-7.61272209e-01
1.61523046e+00,4.22598624e+00,-7.64698039e-01
1.62224449e+00,4.22061061e+00,-7.68124649e-01
1.62925852e+00,4.21521095e+00,-7.71552062e-01
1.63627255e+00,4.20978723e+00,-7.74980280e-01
1.64328657e+00,4.20433948e+00,-7.78409321e-01
1.65030060e+00,4.19886766e+00,-7.81839191e-01
1.65731463e+00,4.19337179e+00,-7.85269907e-01
1.66432866e+00,4.18785185e+00,-7.88701475e-01
1.67134269e+00,4.18230784e+00,-7.92133902e-01
1.67835671e+00,4.17673975e+00,-7.95567201e-01
1.68537074e+00,4.17114758e+00,-7.99001394e-01
1.69238477e+00,4.16553131e+00,-8.02436475e-01
1.69939880e+00,4.15989095e+00,-8.05872460e-01
1.70641283e+00,4.15422649e+00,-8.09309357e-01
1.71342685e+00,4.14853791e+00,-8.12747183e-01
1.72044088e+00,4.14282522e+00,-8.16185937e-01
1.72745491e+00,4.13708841e+00,-8.19625636e-01
1.73446894e+00,4.13132746e+00,-8.23066289e-01
1.74148297e+00,4.12554238e+00,-8.26507907e-01
1.74849699e+00,4.11973316e+00,-8.29950489e-01
1.75551102e+00,4.11389979e+00,-8.33394060e-01
1.76252505e+00,4.10804226e+00,-8.36838613e-01
1.76953908e+00,4.10216057e+00,-8.40284171e-01
1.77655311e+00,4.09625471e+00,-8.43730730e-01
1.78356713e+00,4.09032466e+00,-8.47178306e-01
1.79058116e+00,4.08437044e+00,-8.50626911e-01
1.79759519e+00,4.07839202e+00,-8.54076545e-01
1.80460922e+00,4.07238940e+00,-8.57527226e-01
1.81162325e+00,4.06636258e+00,-8.60978952e-01
1.81863727e+00,4.06031154e+00,-8.64431740e-01
1.82565130e+00,4.05423628e+00,-8.67885596e-01
1.83266533e+00,4.04813679e+00,-8.71340525e-01
1.83967936e+00,4.04201306e+00,-8.74796539e-01
1.84669339e+00,4.03586509e+00,-8.78253642e-01
1.85370741e+00,4.02969287e+00,-8.81711843e-01
1.86072144e+00,4.02349638e+00,-8.85171159e-01
1.86773547e+00,4.01727563e+00,-8.88631588e-01
1.87474950e+00,4.01103061e+00,-8.92093135e-01
1.88176353e+00,4.00476130e+00,-8.95555814e-01
1.88877756e+00,3.99846770e+00,-8.99019639e-01
1.89579158e+00,3.99214980e+00,-9.02484608e-01
1.90280561e+00,3.98580759e+00,-9.05950731e-01
1.90981964e+00,3.97944107e+00,-9.09418016e-01
1.91683367e+00,3.97305022e+00,-9.12886469e-01
1.92384770e+00,3.96663504e+00,-9.16356102e-01
1.93086172e+00,3.96019552e+00,-9.19826920e-01
1.93787575e+00,3.95373166e+00,-9.23298927e-01
1.94488978e+00,3.94724343e+00,-9.26772131e-01
1.95190381e+00,3.94073084e+00,-9.30246546e-01
1.95891784e+00,3.93419388e+00,-9.33722172e-01
1.96593186e+00,3.92763253e+00,-9.37199017e-01
1.97294589e+00,3.92104679e+00,-9.40677094e-01
1.97995992e+00,3.91443666e+00,-9.44156405e-01
1.98697395e+00,3.90780211e+00,-9.47636964e-01
1.99398798e+00,3.90114315e+00,-9.51118761e-01
2.00100200e+00,3.89445976e+00,-9.54601820e-01
2.00801603e+00,3.88775194e+00,-9.58086147e-01
2.01503006e+00,3.88101967e+00,-9.61571738e-01
2.02204409e+00,3.87426295e+00,-9.65058609e-01
2.02905812e+00,3.86748177e+00,-9.68546763e-01
2.03607214e+00,3.86067612e+00,-9.72036208e-01
2.04308617e+00,3.85384599e+00,-9.75526957e-01
2.05010020e+00,3.84699137e+00,-9.79019003e-01
2.05711423e+00,3.84011226e+00,-9.82512365e-01
2.06412826e+00,3.83320863e+00,-9.86007041e-01
2.07114228e+00,3.82628049e+00,-9.89503047e-01
2.07815631e+00,3.81932782e+00,-9.93000381e-01
2.08517034e+00,3.81235062e+00,-9.96499052e-01
2.09218437e+00,3.80534888e+00,-9.99999068e-01
2.09919840e+00,3.79832258e+00,-1.00350044e+00
2.10621242e+00,3.79127171e+00,-1.00700317e+00
2.11322645e+00,3.78419628e+00,-1.01050726e+00
2.12024048e+00,3.77709626e+00,-1.01401273e+00
2.12725451e+00,3.76997164e+00,-1.01751957e+00
2.13426854e+00,3.76282243e+00,-1.02102780e+00
2.14128257e+00,3.75564861e+00,-1.02453741e+00
2.14829659e+00,3.74845016e+00,-1.02804843e+00
2.15531062e+00,3.74122708e+00,-1.03156085e+00
2.16232465e+00,3.73397936e+00,-1.03507468e+00
2.16933868e+00,3.72670699e+00,-1.03858992e+00
2.17635271e+00,3.71940996e+00,-1.04210659e+00
2.18336673e+00,3.71208826e+00,-1.04562469e+00
2.19038076e+00,3.70474188e+00,-1.04914422e+00
2.19739479e+00,3.69737080e+00,-1.05266519e+00
2.20440882e+00,3.68997503e+00,-1.05618762e+00
2.21142285e+00,3.68255454e+00,-1.05971150e+00
2.21843687e+00,3.67510933e+00,-1.06323684e+00
2.22545090e+00,3.66763939e+00,-1.06676364e+00
2.23246493e+00,3.66014471e+00,-1.07029192e+00
2.23947896e+00,3.65262527e+00,-1.07382169e+00
2.24649299e+00,3.64508107e+00,-1.07735293e+00
2.25350701e+00,3.63751210e+00,-1.08088567e+00
2.26052104e+00,3.62991834e+00,-1.08441990e+00
2.26753507e+00,3.62229979e+00,-1.08795565e+00
2.27454910e+00,3.61465644e+00,-1.09149290e+00
2.28156313e+00,3.60698827e+00,-1.09503167e+00
2.28857715e+00,3.59929527e+00,-1.09857196e+00
2.29559118e+00,3.59157743e+00,-1.10211378e+00
2.30260521e+00,3.58383475e+00,-1.10565714e+00
2.30961924e+00,3.57606721e+00,-1.10920204e+00
2.31663327e+00,3.56827480e+00,-1.11274849e+00
2.32364729e+00,3.56045751e+00,-1.11629649e+00
2.33066132e+00,3.55261533e+00,-1.11984605e+00
2.33767535e+00,3.54474824e+00,-1.12339718e+00
2.34468938e+00,3.53685624e+00,-1.12694988e+00
2.35170341e+00,3.52893932e+00,-1.13050416e+00
2.35871743e+00,3.52099746e+00,-1.13406003e+00
2.36573146e+00,3.51303066e+00,-1.13761748e+00
2.37274549e+00,3.50503890e+00,-1.14117653e+00
2.37975952e+00,3.49702217e+00,-1.14473718e+00
2.38677355e+00,3.48898046e+00,-1.14829945e+00
2.39378758e+00,3.48091375e+00,-1.15186332e+00
2.40080160e+00,3.47282205e+00,-1.15542881e+00
2.40781563e+00,3.46470533e+00,-1.15899594e+00
2.41482966e+00,3.45656359e+00,-1.16256470e+00
2.42184369e+00,3.44839680e+00,-1.16613509e+00
2.42885772e+00,3.44020497e+00,-1.16970713e+00
2.43587174e+00,3.43198808e+00,-1.17328083e+00
2.44288577e+00,3.42374612e+00,-1.17685618e+00
2.44989980e+00,3.41547907e+00,-1.18043319e+00
2.45691383e+00,3.40718693e+00,-1.18401187e+00
2.46392786e+00,3.39886969e+00,-1.18759222e+00
2.47094188e+00,3.39052732e+00,-1.19117426e+00
2.47795591e+00,3.38215982e+00,-1.19475799e+00
2.48496994e+00,3.37376718e+00,-1.19834340e+00
2.49198397e+00,3.36534939e+00,-1.20193052e+00
2.49899800e+00,3.35690643e+00,-1.20551934e+00
2.50601202e+00,3.34843829e+00,-1.20910987e+00
2.51302605e+00,3.33994496e+00,-1.21270212e+00
2.52004008e+00,3.33142644e+00,-1.21629609e+00
2.52705411e+00,3.32288269e+00,-1.21989180e+00
2.53406814e+00,3.31431372e+00,-1.22348923e+00
2.54108216e+00,3.30571951e+00,-1.22708841e+00
2.54809619e+00,3.29710005e+00,-1.23068933e+00
2.55511022e+00,3.28845533e+00,-1.23429201e+00
2.56212425e+00,3.27978533e+00,-1.23789644e+00
2.56913828e+00,3.27109004e+00,-1.24150264e+00
2.57615230e+00,3.26236946e+00,-1.24511061e+00
2.58316633e+00,3.25362356e+00,-1.24872036e+00
2.59018036e+00,3.24485233e+00,-1.25233189e+00
2.59719439e+00,3.23605577e+00,-1.25594521e+00
2.60420842e+00,3.22723386e+00,-1.25956032e+00
2.61122244e+00,3.21838658e+00,-1.26317723e+00
2.61823647e+00,3.20951393e+00,-1.26679595e+00
2.62525050e+00,3.20061590e+00,-1.27041648e+00
2.63226453e+00,3.19169246e+00,-1.27403884e+00
2.63927856e+00,3.18274360e+00,-1.27766301e+00
2.64629259e+00,3.17376932e+00,-1.28128902e+00
2.65330661e+00,3.16476960e+00,-1.28491686e+00
2.66032064e+00,3.15574443e+00,-1.28854654e+00
2.66733467e+00,3.14669380e+00,-1.29217807e+00
2.67434870e+00,3.13761768e+00,-1.29581146e+00
2.68136273e+00,3.12851608e+00,-1.29944670e+00
2.68837675e+00,3.11938897e+00,-1.30308381e+00
2.69539078e+00,3.11023634e+00,-1.30672280e+00
2.70240481e+00,3.10105818e+00,-1.31036366e+00
2.70941884e+00,3.09185448e+00,-1.31400640e+00
2.71643287e+00,3.08262522e+00,-1.31765104e+00
2.72344689e+00,3.07337039e+00,-1.32129757e+00
2.73046092e+00,3.06408998e+00,-1.32494600e+00
2.73747495e+00,3.05478397e+00,-1.32859634e+00
2.74448898e+00,3.04545235e+00,-1.33224859e+00
2.75150301e+00,3.03609511e+00,-1.33590277e+00
2.75851703e+00,3.02671223e+00,-1.33955887e+00
2.76553106e+00,3.01730370e+00,-1.34321690e+00
2.77254509e+00,3.00786950e+00,-1.34687687e+00
2.77955912e+00,2.99840963e+00,-1.35053878e+00
2.78657315e+00,2.98892406e+00,-1.35420265e+00
2.79358717e+00,2.97941279e+00,-1.35786846e+00
2.80060120e+00,2.96987580e+00,-1.36153624e+00
2.80761523e+00,2.96031308e+00,-1.36520599e+00
2.81462926e+00,2.95072461e+00,-1.36887771e+00
2.82164329e+00,2.94111038e+00,-1.37255141e+00
2.82865731e+00,2.93147038e+00,-1.37622710e+00
2.83567134e+00,2.92180459e+00,-1.37990477e+00
2.84268537e+00,2.91211299e+00,-1.38358445e+00
2.84969940e+00,2.90239558e+00,-1.38726613e+00
2.85671343e+00,2.89265234e+00,-1.39094982e+00
2.86372745e+00,2.88288326e+00,-1.39463552e+00
2.87074148e+00,2.87308831e+00,-1.39832325e+00
2.87775551e+00,2.86326749e+00,-1.40201301e+00
2.88476954e+00,2.85342079e+00,-1.40570479e+00
2.89178357e+00,2.84354818e+00,-1.40939862e+00
2.89879760e+00,2.83364966e+00,-1.41309449e+00
2.90581162e+00,2.82372521e+00,-1.41679241e+00
2.91282565e+00,2.81377481e+00,-1.42049240e+00
2.91983968e+00,2.80379846e+00,-1.42419445e+00
2.92685371e+00,2.79379613e+00,-1.42789856e+00
2.93386774e+00,2.78376781e+00,-1.43160475e+00
2.94088176e+00,2.77371349e+00,-1.43531303e+00
2.94789579e+00,2.76363315e+00,-1.43902339e+00
2.95490982e+00,2.75352679e+00,-1.44273585e+00
2.96192385e+00,2.74339437e+00,-1.44645040e+00
2.96893788e+00,2.73323589e+00,-1.45016706e+00
2.97595190e+00,2.72305134e+00,-1.45388585e+00
2.98296593e+00,2.71284070e+00,-1.45760673e+00
2.98997996e+00,2.70260395e+00,-1.46132975e+00
2.99699399e+00,2.69234108e+00,-1.46505490e+00
3.00400802e+00,2.68205207e+00,-1.46878219e+00
3.01102204e+00,2.67173691e+00,-1.47251162e+00
3.01803607e+00,2.66139559e+00,-1.47624319e+00
3.02505010e+00,2.65102808e+00,-1.47997693e+00
3.03206413e+00,2.64063438e+00,-1.48371282e+00
3.03907816e+00,2.63021447e+00,-1.48745088e+00
3.04609218e+00,2.61976833e+00,-1.49119112e+00
3.05310621e+00,2.60929595e+00,-1.49493352e+00
3.06012024e+00,2.59879732e+00,-1.49867813e+00
3.06713427e+00,2.58827241e+00,-1.50242492e+00
3.07414830e+00,2.57772121e+00,-1.50617391e+00
3.08116232e+00,2.56714371e+00,-1.50992510e+00
3.08817635e+00,2.55653989e+00,-1.51367851e+00
3.09519038e+00,2.54590974e+00,-1.51743412e+00
3.10220441e+00,2.53525324e+00,-1.52119196e+00
3.10921844e+00,2.52457037e+00,-1.52495204e+00
3.11623246e+00,2.51386112e+00,-1.52871434e+00
3.12324649e+00,2.50312547e+00,-1.53247888e+00
3.13026052e+00,2.49236341e+00,-1.53624568e+00
3.13727455e+00,2.48157493e+00,-1.54001473e+00
3.14428858e+00,2.47075999e+00,-1.54378603e+00
3.15130261e+00,2.45991860e+00,-1.54755960e+00
3.15831663e+00,2.44905074e+00,-1.55133545e+00
3.16533066e+00,2.43815638e+00,-1.55511357e+00
3.17234469e+00,2.42723551e+00,-1.55889398e+00
3.17935872e+00,2.41628812e+00,-1.56267668e+00
3.18637275e+00,2.40531419e+00,-1.56646167e+00
3.19338677e+00,2.39431370e+00,-1.57024896e+00
3.20040080e+00,2.38328664e+00,-1.57403857e+00
3.20741483e+00,2.37223300e+00,-1.57783049e+00
3.21442886e+00,2.36115274e+00,-1.58162474e+00
3.22144289e+00,2.35004587e+00,-1.58542131e+00
3.22845691e+00,2.33891236e+00,-1.58922022e+00
3.23547094e+00,2.32775219e+00,-1.59302146e+00
3.24248497e+00,2.31656536e+00,-1.59682505e+00
3.24949900e+00,2.30535184e+00,-1.60063100e+00
3.25651303e+00,2.29411161e+00,-1.60443931e+00
3.26352705e+00,2.28284467e+00,-1.60824998e+00
3.27054108e+00,2.27155098e+00,-1.61206302e+00
3.27755511e+00,2.26023055e+00,-1.61587845e+00
3.28456914e+00,2.24888335e+00,-1.61969625e+00
3.29158317e+00,2.23750935e+00,-1.62351645e+00
3.29859719e+00,2.22610856e+00,-1.62733905e+00
3.30561122e+00,2.21468095e+00,-1.63116404e+00
3.31262525e+00,2.20322649e+00,-1.63499145e+00
3.31963928e+00,2.19174519e+00,-1.63882128e+00
3.32665331e+00,2.18023701e+00,-1.64265352e+00
3.33366733e+00,2.16870195e+00,-1.64648820e+00
3.34068136e+00,2.15713998e+00,-1.65032531e+00
3.34769539e+00,2.14555108e+00,-1.65416487e+00
3.35470942e+00,2.13393525e+00,-1.65800687e+00
3.36172345e+00,2.12229247e+00,-1.66185132e+00
3.36873747e+00,2.11062270e+00,-1.66569824e+00
3.37575150e+00,2.09892595e+00,-1.66954763e+00
3.38276553e+00,2.08720219e+00,-1.67339948e+00
3.38977956e+00,2.07545140e+00,-1.67725382e+00
3.39679359e+00,2.06367357e+00,-1.68111064e+00
3.40380762e+00,2.05186868e+00,-1.68496996e+00
3.41082164e+00,2.04003671e+00,-1.68883178e+00
3.41783567e+00,2.02817765e+00,-1.69269610e+00
3.42484970e+00,2.01629147e+00,-1.69656293e+00
3.43186373e+00,2.00437816e+00,-1.70043229e+00
